Freq;Real;Imaginaria
1.00000000000000e+01;2.07504126647297e-05;4.55521482315642e-03
2.00000000000000e+01;8.29964840250392e-05;9.10986254609139e-03
3.00000000000000e+01;1.86722717395049e-04;1.36633763038957e-02
4.00000000000000e+01;3.31903295680423e-04;1.82151897020794e-02
5.00000000000000e+01;5.18502097438498e-04;2.27647370512697e-02
6.00000000000000e+01;7.46472719336348e-04;2.73114536012940e-02
7.00000000000000e+01;1.01575850498075e-03;3.18547757744472e-02
8.00000000000000e+01;1.32629258008659e-03;3.63941413977387e-02
9.00000000000000e+01;1.67799789394312e-03;4.09289899339214e-02
1.00000000000000e+02;2.07078726712993e-03;4.54587627111013e-02
1.10000000000000e+02;2.50456344542778e-03;4.99829031507336e-02
1.20000000000000e+02;2.97921915986211e-03;5.45008569938090e-02
1.30000000000000e+02;3.49463719281012e-03;5.90120725250414e-02
1.40000000000000e+02;4.05069045009580e-03;6.35160007948651e-02
1.50000000000000e+02;4.64724203899032e-03;6.80120958390591e-02
1.60000000000000e+02;5.28414535202888e-03;7.24998148958155e-02
1.70000000000000e+02;5.96124415654874e-03;7.69786186200737e-02
1.80000000000000e+02;6.67837268984688e-03;8.14479712949463e-02
1.90000000000000e+02;7.43535575985009e-03;8.59073410400680e-02
2.00000000000000e+02;8.23200885118391e-03;9.03562000167002e-02
2.10000000000000e+02;9.06813823652200e-03;9.47940246294318e-02
2.20000000000000e+02;9.94354109309153e-03;9.92202957243201e-02
2.30000000000000e+02;1.08580056242052e-02;1.03634498783320e-01
2.40000000000000e+02;1.18113111856860e-02;1.08036124114857e-01
2.50000000000000e+02;1.28032284170451e-02;1.12424667040406e-01
2.60000000000000e+02;1.38335193772707e-02;1.16799628076931e-01
2.70000000000000e+02;1.49019376850782e-02;1.21160513115075e-01
2.80000000000000e+02;1.60082286634730e-02;1.25506833592960e-01
2.90000000000000e+02;1.71521294884675e-02;1.29838106665487e-01
3.00000000000000e+02;1.83333693417967e-02;1.34153855369027e-01
3.10000000000000e+02;1.95516695674682e-02;1.38453608781399e-01
3.20000000000000e+02;2.08067438319836e-02;1.42736902177026e-01
3.30000000000000e+02;2.20982982880625e-02;1.47003277177192e-01
3.40000000000000e+02;2.34260317417009e-02;1.51252281895308e-01
3.50000000000000e+02;2.47896358223914e-02;1.55483471077104e-01
3.60000000000000e+02;2.61887951563314e-02;1.59696406235679e-01
3.70000000000000e+02;2.76231875424455e-02;1.63890655781348e-01
3.80000000000000e+02;2.90924841310440e-02;1.68065795146213e-01
3.90000000000000e+02;3.05963496049419e-02;1.72221406903422e-01
4.00000000000000e+02;3.21344423628589e-02;1.76357080881055e-01
4.10000000000000e+02;3.37064147049235e-02;1.80472414270612e-01
4.20000000000000e+02;3.53119130201011e-02;1.84567011730054e-01
4.30000000000000e+02;3.69505779753677e-02;1.88640485481389e-01
4.40000000000000e+02;3.86220447064526e-02;1.92692455402762e-01
4.50000000000000e+02;4.03259430099700e-02;1.96722549115059e-01
4.60000000000000e+02;4.20618975367641e-02;2.00730402062993e-01
4.70000000000000e+02;4.38295279862921e-02;2.04715657590696e-01
4.80000000000000e+02;4.56284493018698e-02;2.08677967011797e-01
4.90000000000000e+02;4.74582718666072e-02;2.12616989674020e-01
5.00000000000000e+02;4.93186016998627e-02;2.16532393018303e-01
5.10000000000000e+02;5.12090406540474e-02;2.20423852632467e-01
5.20000000000000e+02;5.31291866116116e-02;2.24291052299462e-01
5.30000000000000e+02;5.50786336820489e-02;2.28133684040230e-01
5.40000000000000e+02;5.70569723987564e-02;2.31951448151211e-01
5.50000000000000e+02;5.90637899155903e-02;2.35744053236550e-01
5.60000000000000e+02;6.10986702029624e-02;2.39511216235048e-01
5.70000000000000e+02;6.31611942433220e-02;2.43252662441913e-01
5.80000000000000e+02;6.52509402258745e-02;2.46968125525368e-01
5.90000000000000e+02;6.73674837403888e-02;2.50657347538183e-01
6.00000000000000e+02;6.95103979699515e-02;2.54320078924198e-01
6.10000000000000e+02;7.16792538825273e-02;2.57956078519913e-01
6.20000000000000e+02;7.38736204211899e-02;2.61565113551207e-01
6.30000000000000e+02;7.60930646928920e-02;2.65146959625290e-01
6.40000000000000e+02;7.83371521556456e-02;2.68701400717951e-01
6.50000000000000e+02;8.06054468039898e-02;2.72228229156197e-01
6.60000000000000e+02;8.28975113526250e-02;2.75727245596380e-01
6.70000000000000e+02;8.52129074180998e-02;2.79198258997892e-01
6.80000000000000e+02;8.75511956984373e-02;2.82641086592539e-01
6.90000000000000e+02;8.99119361505961e-02;2.86055553849680e-01
7.00000000000000e+02;9.22946881656617e-02;2.89441494437244e-01
7.10000000000000e+02;9.46990107416724e-02;2.92798750178721e-01
7.20000000000000e+02;9.71244626539838e-02;2.96127171006240e-01
7.30000000000000e+02;9.95706026230853e-02;2.99426614909832e-01
7.40000000000000e+02;1.02036989479782e-01;3.02696947883002e-01
7.50000000000000e+02;1.04523182327666e-01;3.05938043864707e-01
7.60000000000000e+02;1.07028740702791e-01;3.09149784677858e-01
7.70000000000000e+02;1.09553224730501e-01;3.12332059964471e-01
7.80000000000000e+02;1.12096195279318e-01;3.15484767117557e-01
7.90000000000000e+02;1.14657214111849e-01;3.18607811209893e-01
8.00000000000000e+02;1.17235844032651e-01;3.21701104919773e-01
8.10000000000000e+02;1.19831649032986e-01;3.24764568453859e-01
8.20000000000000e+02;1.22444194432443e-01;3.27798129467258e-01
8.30000000000000e+02;1.25073047017357e-01;3.30801722980928e-01
8.40000000000000e+02;1.27717775175997e-01;3.33775291296541e-01
8.50000000000000e+02;1.30377949030498e-01;3.36718783908915e-01
8.60000000000000e+02;1.33053140565474e-01;3.39632157416135e-01
8.70000000000000e+02;1.35742923753325e-01;3.42515375427475e-01
8.80000000000000e+02;1.38446874676175e-01;3.45368408469238e-01
8.90000000000000e+02;1.41164571644448e-01;3.48191233888632e-01
9.00000000000000e+02;1.43895595312060e-01;3.50983835755791e-01
9.10000000000000e+02;1.46639528788204e-01;3.53746204764062e-01
9.20000000000000e+02;1.49395957745733e-01;3.56478338128656e-01
9.30000000000000e+02;1.52164470526129e-01;3.59180239483789e-01
9.40000000000000e+02;1.54944658241059e-01;3.61851918778415e-01
9.50000000000000e+02;1.57736114870519e-01;3.64493392170658e-01
9.60000000000000e+02;1.60538437357566e-01;3.67104681921052e-01
9.70000000000000e+02;1.63351225699662e-01;3.69685816284693e-01
9.80000000000000e+02;1.66174083036621e-01;3.72236829402410e-01
9.90000000000000e+02;1.69006615735186e-01;3.74757761191046e-01
1.00000000000000e+03;1.71848433470256e-01;3.77248657232965e-01
1.01000000000000e+03;1.74699149302769e-01;3.79709568664865e-01
1.02000000000000e+03;1.77558379754279e-01;3.82140552066009e-01
1.03000000000000e+03;1.80425744878239e-01;3.84541669345952e-01
1.04000000000000e+03;1.83300868328035e-01;3.86912987631875e-01
1.05000000000000e+03;1.86183377421774e-01;3.89254579155589e-01
1.06000000000000e+03;1.89072903203890e-01;3.91566521140333e-01
1.07000000000000e+03;1.91969080503579e-01;3.93848895687406e-01
1.08000000000000e+03;1.94871547990103e-01;3.96101789662763e-01
1.09000000000000e+03;1.97779948225016e-01;3.98325294583618e-01
1.10000000000000e+03;2.00693927711331e-01;4.00519506505151e-01
1.11000000000000e+03;2.03613136939685e-01;4.02684525907398e-01
1.12000000000000e+03;2.06537230431540e-01;4.04820457582382e-01
1.13000000000000e+03;2.09465866779461e-01;4.06927410521569e-01
1.14000000000000e+03;2.12398708684526e-01;4.09005497803724e-01
1.15000000000000e+03;2.15335422990909e-01;4.11054836483206e-01
1.16000000000000e+03;2.18275680717683e-01;4.13075547478806e-01
1.17000000000000e+03;2.21219157087901e-01;4.15067755463153e-01
1.18000000000000e+03;2.24165531554995e-01;4.17031588752772e-01
1.19000000000000e+03;2.27114487826555e-01;4.18967179198844e-01
1.20000000000000e+03;2.30065713885533e-01;4.20874662078715e-01
1.21000000000000e+03;2.33018902008928e-01;4.22754175988223e-01
1.22000000000000e+03;2.35973748784007e-01;4.24605862734878e-01
1.23000000000000e+03;2.38929955122114e-01;4.26429867231950e-01
1.24000000000000e+03;2.41887226270120e-01;4.28226337393519e-01
1.25000000000000e+03;2.44845271819579e-01;4.29995424030507e-01
1.26000000000000e+03;2.47803805713632e-01;4.31737280747762e-01
1.27000000000000e+03;2.50762546251725e-01;4.33452063842216e-01
1.28000000000000e+03;2.53721216092194e-01;4.35139932202150e-01
1.29000000000000e+03;2.56679542252769e-01;4.36801047207625e-01
1.30000000000000e+03;2.59637256109061e-01;4.38435572632079e-01
1.31000000000000e+03;2.62594093391083e-01;4.40043674545150e-01
1.32000000000000e+03;2.65549794177861e-01;4.41625521216739e-01
1.33000000000000e+03;2.68504102890192e-01;4.43181283022337e-01
1.34000000000000e+03;2.71456768281608e-01;4.44711132349656e-01
1.35000000000000e+03;2.74407543427594e-01;4.46215243506569e-01
1.36000000000000e+03;2.77356185713124e-01;4.47693792630399e-01
1.37000000000000e+03;2.80302456818562e-01;4.49146957598557e-01
1.38000000000000e+03;2.83246122703989e-01;4.50574917940564e-01
1.39000000000000e+03;2.86186953592005e-01;4.51977854751461e-01
1.40000000000000e+03;2.89124723949062e-01;4.53355950606629e-01
1.41000000000000e+03;2.92059212465382e-01;4.54709389478030e-01
1.42000000000000e+03;2.94990202033511e-01;4.56038356651871e-01
1.43000000000000e+03;2.97917479725561e-01;4.57343038647721e-01
1.44000000000000e+03;3.00840836769188e-01;4.58623623139065e-01
1.45000000000000e+03;3.03760068522371e-01;4.59880298875322e-01
1.46000000000000e+03;3.06674974447016e-01;4.61113255605321e-01
1.47000000000000e+03;3.09585358081459e-01;4.62322684002238e-01
1.48000000000000e+03;3.12491027011908e-01;4.63508775590011e-01
1.49000000000000e+03;3.15391792842867e-01;4.64671722671209e-01
1.50000000000000e+03;3.18287471166591e-01;4.65811718256387e-01
1.51000000000000e+03;3.21177881531624e-01;4.66928955994894e-01
1.52000000000000e+03;3.24062847410459e-01;4.68023630107161e-01
1.53000000000000e+03;3.26942196166369e-01;4.69095935318439e-01
1.54000000000000e+03;3.29815759019450e-01;4.70146066794006e-01
1.55000000000000e+03;3.32683371011913e-01;4.71174220075826e-01
1.56000000000000e+03;3.35544870972688e-01;4.72180591020650e-01
1.57000000000000e+03;3.38400101481349e-01;4.73165375739563e-01
1.58000000000000e+03;3.41248908831435e-01;4.74128770538964e-01
1.59000000000000e+03;3.44091142993173e-01;4.75070971862968e-01
1.60000000000000e+03;3.46926657575672e-01;4.75992176237220e-01
1.61000000000000e+03;3.49755309788602e-01;4.76892580214120e-01
1.62000000000000e+03;3.52576960403409e-01;4.77772380319438e-01
1.63000000000000e+03;3.55391473714094e-01;4.78631773000308e-01
1.64000000000000e+03;3.58198717497593e-01;4.79470954574594e-01
1.65000000000000e+03;3.60998562973797e-01;4.80290121181615e-01
1.66000000000000e+03;3.63790884765241e-01;4.81089468734210e-01
1.67000000000000e+03;3.66575560856483e-01;4.81869192872130e-01
1.68000000000000e+03;3.69352472553232e-01;4.82629488916753e-01
1.69000000000000e+03;3.72121504441228e-01;4.83370551827090e-01
1.70000000000000e+03;3.74882544344916e-01;4.84092576157080e-01
1.71000000000000e+03;3.77635483285944e-01;4.84795756014154e-01
1.72000000000000e+03;3.80380215441506e-01;4.85480285019051e-01
1.73000000000000e+03;3.83116638102565e-01;4.86146356266869e-01
1.74000000000000e+03;3.85844651631978e-01;4.86794162289335e-01
1.75000000000000e+03;3.88564159422542e-01;4.87423895018284e-01
1.76000000000000e+03;3.91275067855000e-01;4.88035745750314e-01
1.77000000000000e+03;3.93977286256020e-01;4.88629905112614e-01
1.78000000000000e+03;3.96670726856166e-01;4.89206563029940e-01
1.79000000000000e+03;3.99355304747900e-01;4.89765908692726e-01
1.80000000000000e+03;4.02030937843620e-01;4.90308130526304e-01
1.81000000000000e+03;4.04697546833759e-01;4.90833416161223e-01
1.82000000000000e+03;4.07355055144965e-01;4.91341952404644e-01
1.83000000000000e+03;4.10003388898391e-01;4.91833925212796e-01
1.84000000000000e+03;4.12642476868092e-01;4.92309519664467e-01
1.85000000000000e+03;4.15272250439566e-01;4.92768919935526e-01
1.86000000000000e+03;4.17892643568446e-01;4.93212309274436e-01
1.87000000000000e+03;4.20503592739364e-01;4.93639869978764e-01
1.88000000000000e+03;4.23105036924995e-01;4.94051783372648e-01
1.89000000000000e+03;4.25696917545309e-01;4.94448229785214e-01
1.90000000000000e+03;4.28279178427025e-01;4.94829388529923e-01
1.91000000000000e+03;4.30851765763307e-01;4.95195437884829e-01
1.92000000000000e+03;4.33414628073684e-01;4.95546555073723e-01
1.93000000000000e+03;4.35967716164241e-01;4.95882916248157e-01
1.94000000000000e+03;4.38510983088055e-01;4.96204696470320e-01
1.95000000000000e+03;4.41044384105922e-01;4.96512069696750e-01
1.96000000000000e+03;4.43567876647356e-01;4.96805208762863e-01
1.97000000000000e+03;4.46081420271901e-01;4.97084285368291e-01
1.98000000000000e+03;4.48584976630725e-01;4.97349470062990e-01
1.99000000000000e+03;4.51078509428551e-01;4.97600932234122e-01
2.00000000000000e+03;4.53561984385894e-01;4.97838840093683e-01
2.01000000000000e+03;4.56035369201635e-01;4.98063360666857e-01
2.02000000000000e+03;4.58498633515931e-01;4.98274659781084e-01
2.03000000000000e+03;4.60951748873469e-01;4.98472902055828e-01
2.04000000000000e+03;4.63394688687071e-01;4.98658250893017e-01
2.05000000000000e+03;4.65827428201656e-01;4.98830868468148e-01
2.06000000000000e+03;4.68249944458565e-01;4.98990915722036e-01
2.07000000000000e+03;4.70662216260249e-01;4.99138552353191e-01
2.08000000000000e+03;4.73064224135334e-01;4.99273936810814e-01
2.09000000000000e+03;4.75455950304063e-01;4.99397226288376e-01
2.10000000000000e+03;4.77837378644112e-01;4.99508576717793e-01
2.11000000000000e+03;4.80208494656795e-01;4.99608142764157e-01
2.12000000000000e+03;4.82569285433656e-01;4.99696077821016e-01
2.13000000000000e+03;4.84919739623451e-01;4.99772534006197e-01
2.14000000000000e+03;4.87259847399517e-01;4.99837662158142e-01
2.15000000000000e+03;4.89589600427543e-01;4.99891611832747e-01
2.16000000000000e+03;4.91908991833737e-01;4.99934531300703e-01
2.17000000000000e+03;4.94218016173384e-01;4.99966567545300e-01
2.18000000000000e+03;4.96516669399809e-01;4.99987866260702e-01
2.19000000000000e+03;4.98804948833743e-01;4.99998571850670e-01
2.20000000000000e+03;5.01082853133086e-01;4.99998827427717e-01
2.21000000000000e+03;5.03350382263070e-01;4.99988774812686e-01
2.22000000000000e+03;5.05607537466829e-01;4.99968554534741e-01
2.23000000000000e+03;5.07854321236369e-01;4.99938305831746e-01
2.24000000000000e+03;5.10090737283939e-01;4.99898166651036e-01
2.25000000000000e+03;5.12316790513802e-01;4.99848273650554e-01
2.26000000000000e+03;5.14532486994413e-01;4.99788762200349e-01
2.27000000000000e+03;5.16737833930989e-01;4.99719766384419e-01
2.28000000000000e+03;5.18932839638481e-01;4.99641419002892e-01
2.29000000000000e+03;5.21117513514945e-01;4.99553851574529e-01
2.30000000000000e+03;5.23291866015309e-01;4.99457194339540e-01
2.31000000000000e+03;5.25455908625531e-01;4.99351576262706e-01
2.32000000000000e+03;5.27609653837155e-01;4.99237125036783e-01
2.33000000000000e+03;5.29753115122250e-01;4.99113967086198e-01
2.34000000000000e+03;5.31886306908752e-01;4.98982227571004e-01
2.35000000000000e+03;5.34009244556176e-01;4.98842030391103e-01
2.36000000000000e+03;5.36121944331725e-01;4.98693498190718e-01
2.37000000000000e+03;5.38224423386773e-01;4.98536752363102e-01
2.38000000000000e+03;5.40316699733735e-01;4.98371913055481e-01
2.39000000000000e+03;5.42398792223306e-01;4.98199099174221e-01
2.40000000000000e+03;5.44470720522082e-01;4.98018428390202e-01
2.41000000000000e+03;5.46532505090542e-01;4.97830017144405e-01
2.42000000000000e+03;5.48584167161410e-01;4.97633980653685e-01
2.43000000000000e+03;5.50625728718375e-01;4.97430432916738e-01
2.44000000000000e+03;5.52657212475172e-01;4.97219486720246e-01
2.45000000000000e+03;5.54678641855028e-01;4.97001253645189e-01
2.46000000000000e+03;5.56690040970458e-01;4.96775844073328e-01
2.47000000000000e+03;5.58691434603417e-01;4.96543367193836e-01
2.48000000000000e+03;5.60682848185799e-01;4.96303931010081e-01
2.49000000000000e+03;5.62664307780280e-01;4.96057642346551e-01
2.50000000000000e+03;5.64635840061507e-01;4.95804606855910e-01
2.51000000000000e+03;5.66597472297624e-01;4.95544929026186e-01
2.52000000000000e+03;5.68549232332130e-01;4.95278712188073e-01
2.53000000000000e+03;5.70491148566070e-01;4.95006058522354e-01
2.54000000000000e+03;5.72423249940555e-01;4.94727069067428e-01
2.55000000000000e+03;5.74345565919608e-01;4.94441843726938e-01
2.56000000000000e+03;5.76258126473317e-01;4.94150481277495e-01
2.57000000000000e+03;5.78160962061326e-01;4.93853079376496e-01
2.58000000000000e+03;5.80054103616616e-01;4.93549734570023e-01
2.59000000000000e+03;5.81937582529613e-01;4.93240542300816e-01
2.60000000000000e+03;5.83811430632590e-01;4.92925596916328e-01
2.61000000000000e+03;5.85675680184374e-01;4.92604991676845e-01
2.62000000000000e+03;5.87530363855348e-01;4.92278818763666e-01
2.63000000000000e+03;5.89375514712751e-01;4.91947169287344e-01
2.64000000000000e+03;5.91211166206264e-01;4.91610133295982e-01
2.65000000000000e+03;5.93037352153882e-01;4.91267799783575e-01
2.66000000000000e+03;5.94854106728068e-01;4.90920256698397e-01
2.67000000000000e+03;5.96661464442189e-01;4.90567590951432e-01
2.68000000000000e+03;5.98459460137217e-01;4.90209888424834e-01
2.69000000000000e+03;6.00248128968713e-01;4.89847233980424e-01
2.70000000000000e+03;6.02027506394067e-01;4.89479711468217e-01
2.71000000000000e+03;6.03797628160006e-01;4.89107403734964e-01
2.72000000000000e+03;6.05558530290358e-01;4.88730392632727e-01
2.73000000000000e+03;6.07310249074079e-01;4.88348759027459e-01
2.74000000000000e+03;6.09052821053517e-01;4.87962582807606e-01
2.75000000000000e+03;6.10786283012941e-01;4.87571942892715e-01
2.76000000000000e+03;6.12510671967299e-01;4.87176917242050e-01
2.77000000000000e+03;6.14226025151227e-01;4.86777582863212e-01
2.78000000000000e+03;6.15932380008286e-01;4.86374015820761e-01
2.79000000000000e+03;6.17629774180443e-01;4.85966291244833e-01
2.80000000000000e+03;6.19318245497768e-01;4.85554483339753e-01
2.81000000000000e+03;6.20997831968369e-01;4.85138665392643e-01
2.82000000000000e+03;6.22668571768538e-01;4.84718909782017e-01
2.83000000000000e+03;6.24330503233127e-01;4.84295287986366e-01
2.84000000000000e+03;6.25983664846131e-01;4.83867870592725e-01
2.85000000000000e+03;6.27628095231484e-01;4.83436727305222e-01
2.86000000000000e+03;6.29263833144065e-01;4.83001926953613e-01
2.87000000000000e+03;6.30890917460911e-01;4.82563537501789e-01
2.88000000000000e+03;6.32509387172621e-01;4.82121626056264e-01
2.89000000000000e+03;6.34119281374972e-01;4.81676258874632e-01
2.90000000000000e+03;6.35720639260720e-01;4.81227501373999e-01
2.91000000000000e+03;6.37313500111594e-01;4.80775418139388e-01
2.92000000000000e+03;6.38897903290481e-01;4.80320072932111e-01
2.93000000000000e+03;6.40473888233794e-01;4.79861528698102e-01
2.94000000000000e+03;6.42041494444017e-01;4.79399847576228e-01
2.95000000000000e+03;6.43600761482439e-01;4.78935090906548e-01
2.96000000000000e+03;6.45151728962053e-01;4.78467319238552e-01
2.97000000000000e+03;6.46694436540632e-01;4.77996592339345e-01
2.98000000000000e+03;6.48228923913975e-01;4.77522969201802e-01
2.99000000000000e+03;6.49755230809316e-01;4.77046508052672e-01
3.00000000000000e+03;6.51273396978898e-01;4.76567266360652e-01
3.01000000000000e+03;6.52783462193705e-01;4.76085300844402e-01
3.02000000000000e+03;6.54285466237358e-01;4.75600667480525e-01
3.03000000000000e+03;6.55779448900155e-01;4.75113421511500e-01
3.04000000000000e+03;6.57265449973271e-01;4.74623617453561e-01
3.05000000000000e+03;6.58743509243103e-01;4.74131309104540e-01
3.06000000000000e+03;6.60213666485761e-01;4.73636549551647e-01
3.07000000000000e+03;6.61675961461704e-01;4.73139391179210e-01
3.08000000000000e+03;6.63130433910517e-01;4.72639885676364e-01
3.09000000000000e+03;6.64577123545818e-01;4.72138084044683e-01
3.10000000000000e+03;6.66016070050316e-01;4.71634036605766e-01
3.11000000000000e+03;6.67447313070984e-01;4.71127793008763e-01
3.12000000000000e+03;6.68870892214374e-01;4.70619402237860e-01
3.13000000000000e+03;6.70286847042059e-01;4.70108912619698e-01
3.14000000000000e+03;6.71695217066190e-01;4.69596371830739e-01
3.15000000000000e+03;6.73096041745190e-01;4.69081826904590e-01
3.16000000000000e+03;6.74489360479556e-01;4.68565324239252e-01
3.17000000000000e+03;6.75875212607789e-01;4.68046909604331e-01
